Distance_(cm),cm
0.0,0.12894818
0.024029246666666667,0.15034211252525254
0.048058493333333334,0.17186761191919192
0.07208774,0.19112676424242425
0.09611698666666667,0.20622249737373738
0.12014623333333334,0.222377821010101
0.14417548,0.22914894787878787
0.16820472666666667,0.23697658646464648
0.19223397333333334,0.2504258351515152
0.21626322,0.2579092909090909
0.24029246666666668,0.26284936000000003
0.2643217133333333,0.26284936000000003
0.28835096,0.26326407272727265
0.31238020666666666,0.2729157905050505
0.33640945333333333,0.2827454878787879
0.3604387,0.29823356121212125
0.38446794666666667,0.3042312709090909
0.40849719333333334,0.30703530262626266
0.43252644,0.3153324563636364
0.4565556866666667,0.3216896658585858
0.48058493333333335,0.321874701010101
0.50461418,0.3258703775757576
0.5286434266666666,0.3359626955555555
0.5526726733333334,0.33980022505050506
0.57670192,0.3471825939393939
0.6007311666666667,0.3555033773737374
0.6247604133333333,0.35556444
0.64878966,0.35556444
0.6728189066666667,0.35556444
0.6968481533333334,0.35710188404040405
0.7208774,0.35877499999999996
0.7449066466666667,0.35877499999999996
0.7689358933333333,0.35877499999999996
0.79296514,0.35720527999999996
0.8169943866666667,0.36016348202020204
0.8410236333333333,0.37001688606060607
0.86505288,0.37282143090909087
0.8890821266666666,0.3730239638383837
0.9131113733333334,0.38878535656565655
0.93714062,0.3950221084848485
0.9611698666666667,0.39527226000000004
0.9851991133333333,0.39527226000000004
1.00922836,0.39527226000000004
1.0332576066666668,0.3993131947474749
1.0572868533333333,0.40635935999999995
1.0813161,0.40635935999999995
1.1053453466666667,0.4067889791919192
1.1293745933333335,0.4109554771717172
1.15340384,0.41719499999999987
1.1774330866666667,0.42989461515151517
1.2014623333333334,0.4402763391919192
1.22549158,0.44312501333333326
1.2495208266666666,0.4510630008080808
1.2735500733333334,0.45943245474747474
1.29757932,0.4699798945454546
1.3216085666666666,0.47445280888888886
1.3456378133333333,0.48861092282828283
1.36966706,0.49101756
1.3936963066666668,0.49101756
1.4177255533333333,0.49277865232323237
1.4417548,0.49363883999999997
1.4657840466666667,0.5078672529292929
1.4898132933333335,0.5119766650505051
1.51384254,0.5263279472727272
1.5378717866666667,0.546132275959596
1.5619010333333334,0.5568020206060605
1.58593028,0.5744099933333331
1.6099595266666666,0.5918128418181818
1.6339887733333334,0.5954685945454545
1.65801802,0.6083912678787881
1.6820472666666666,0.6216602791919191
1.7060765133333333,0.6268602492929294
1.73010576,0.6400890054545455
1.7541350066666668,0.6477894131313132
1.7781642533333333,0.6661584109090909
1.8021935,0.6815956072727273
1.8262227466666667,0.7007041555555555
1.8502519933333335,0.7148336111111112
1.87428124,0.7281500357575758
1.8983104866666667,0.73082344989899
1.9223397333333334,0.7443663707070707
1.94636898,0.7540588054545455
1.9703982266666666,0.7678727365656566
1.9944274733333334,0.788113816969697
2.01845672,0.7967740624242424
2.042485966666667,0.8117223472727273
2.0665152133333335,0.8208435385858589
2.09054446,0.83016852
2.1145737066666666,0.8330409777777779
2.1386029533333333,0.8400182808080808
2.1626322,0.8469355218181818
2.1866614466666667,0.8561326309090911
2.2106906933333335,0.8659611224242426
2.23471994,0.8764256145454545
2.258749186666667,0.8879864373737376
2.282778433333333,0.9017516466666667
2.30680768,0.9148862175757575
2.3308369266666666,0.9307003858585858
2.3548661733333334,0.9459010800000001
2.37889542,0.9459010800000001
